# Angle dependent transmission adjustement (vignetting) for CAF2 windows mounted in the scanner. Source scanner/08D.Window.Lager.Performance-Tests/Tx.vs.Angle.GO90409A.xls
0,0.8979
5,0.9474
10,0.9705
15,0.9853
20,0.9905
25,0.9968
30,1
35,1
40,1
45,1
50,1
55,1
60,1
65,1
70,1
75,1
80,1
85,1
90,1
95,0.9979
100,0.9926
105,0.9821
110,0.9716
115,0.9526
120,0.9011